"Time (s)","X (µT)","Y (µT)","Z (µT)"
2.617766673E-2,1.662335205E1,-3.605313873E1,-1.316483307E1
4.611266672E-2,1.643968201E1,-3.595407104E1,-1.399019623E1
6.604866672E-2,1.574591064E1,-3.608435822E1,-1.486458206E1
8.598366671E-2,1.504924011E1,-3.607950592E1,-1.547522354E1
1.059186667E-1,1.424526978E1,-3.603759003E1,-1.590863419E1
1.258536667E-1,1.355647278E1,-3.631894684E1,-1.657361603E1
1.457886667E-1,1.274215698E1,-3.634707642E1,-1.702636337E1
1.657236667E-1,1.200297546E1,-3.655949020E1,-1.735800552E1
1.856586667E-1,1.115074158E1,-3.656787872E1,-1.762492752E1
2.055936668E-1,1.021701050E1,-3.655947113E1,-1.799115753E1
2.255286667E-1,9.856185913E0,-3.657304764E1,-1.912968445E1
2.454636667E-1,9.608261108E0,-3.629685974E1,-1.941833496E1
2.653986667E-1,9.315307617E0,-3.619956207E1,-1.993433380E1
2.853336667E-1,9.315902710E0,-3.631037140E1,-1.956446457E1
3.052696667E-1,9.377182007E0,-3.611452484E1,-1.957690430E1
3.252046667E-1,1.000312805E1,-3.569095612E1,-1.981330872E1
3.451396667E-1,1.068496704E1,-3.513328552E1,-2.042741013E1
3.650746667E-1,1.103051758E1,-3.493273926E1,-2.093535995E1
3.850096667E-1,1.131027222E1,-3.412955093E1,-2.194318771E1
4.049446667E-1,1.142266846E1,-3.343608475E1,-2.278993988E1
4.248796667E-1,1.116380310E1,-3.293203354E1,-2.414988327E1
4.448146668E-1,1.071279907E1,-3.238572693E1,-2.474101257E1
4.647496667E-1,1.028593445E1,-3.186315536E1,-2.575197220E1
4.846846667E-1,9.788467407E0,-3.157061577E1,-2.668989563E1
5.046196667E-1,9.125686646E0,-3.110307693E1,-2.736123276E1
5.245546667E-1,8.153396606E0,-3.119329262E1,-2.777544022E1
5.444906667E-1,6.975601196E0,-3.140868378E1,-2.772799683E1
5.644256667E-1,5.847625732E0,-3.185275269E1,-2.766513824E1
5.843606667E-1,4.999221802E0,-3.220376968E1,-2.752335739E1
6.042956667E-1,4.205764771E0,-3.231756592E1,-2.714526367E1
6.242306667E-1,3.553848267E0,-3.241539383E1,-2.718112946E1
6.441656667E-1,2.809051514E0,-3.260298157E1,-2.718398666E1
6.641006666E-1,2.307846069E0,-3.277005768E1,-2.658749008E1
6.840356668E-1,2.191818237E0,-3.301260757E1,-2.595156097E1
7.039706667E-1,2.372924805E0,-3.369119644E1,-2.499096298E1
7.239056667E-1,2.271881104E0,-3.449306870E1,-2.372606277E1
7.438406667E-1,2.134826660E0,-3.500755310E1,-2.283350754E1
7.637756667E-1,1.752197266E0,-3.609396362E1,-2.113190079E1
7.837116667E-1,1.053070068E0,-3.648775482E1,-1.964586639E1
8.036466667E-1,3.306732178E-1,-3.706872940E1,-1.840050888E1
8.235816667E-1,-2.655181885E-1,-3.747670746E1,-1.807875443E1
8.435166667E-1,-7.313537598E-1,-3.743276215E1,-1.772937012E1
8.634516667E-1,-1.591003418E0,-3.721723175E1,-1.839599228E1
8.833866667E-1,-2.226089478E0,-3.679005814E1,-1.937065506E1
9.033216668E-1,-2.904785156E0,-3.631708527E1,-2.000017166E1
9.232566667E-1,-3.474685669E0,-3.579886246E1,-2.052173996E1
9.431916667E-1,-4.063842773E0,-3.541839981E1,-2.157997131E1
9.631266667E-1,-4.661804199E0,-3.473528290E1,-2.223481750E1
9.830616667E-1,-5.057334900E0,-3.410771179E1,-2.326348495E1
1.002996667E0,-5.142646790E0,-3.348312378E1,-2.377682495E1
1.022932292E0,-5.291572571E0,-3.319368362E1,-2.429231262E1
1.042867292E0,-5.633850098E0,-3.301541138E1,-2.448346710E1
1.062802292E0,-6.230583191E0,-3.319598389E1,-2.419030762E1
1.082737292E0,-6.881286621E0,-3.339131546E1,-2.315397644E1
1.102672292E0,-7.586647034E0,-3.359569550E1,-2.252298737E1
1.122607292E0,-8.289688110E0,-3.387434006E1,-2.158110046E1
1.142542292E0,-8.988014221E0,-3.394021988E1,-2.099310684E1
1.162477292E0,-9.275428772E0,-3.396230316E1,-2.050046158E1
1.182412292E0,-9.741218567E0,-3.402014160E1,-2.021160126E1
1.202347292E0,-1.006431580E1,-3.418769455E1,-1.994105530E1
1.222282292E0,-1.001752472E1,-3.422512436E1,-1.977902603E1
1.242217292E0,-1.000877380E1,-3.440487671E1,-1.928773117E1
1.262152292E0,-9.977874756E0,-3.458979797E1,-1.859732056E1
1.282087292E0,-1.002237701E1,-3.459444427E1,-1.804538727E1
1.302023292E0,-1.015622711E1,-3.449309158E1,-1.828976822E1
1.321958292E0,-9.742500305E0,-3.410956192E1,-1.884620667E1
1.341893292E0,-9.257461548E0,-3.337921143E1,-2.033081818E1
1.361828292E0,-8.474739075E0,-3.271732330E1,-2.158085632E1
1.381763292E0,-7.552345276E0,-3.191233444E1,-2.293790054E1
1.401698292E0,-6.868431091E0,-3.149777603E1,-2.367523956E1
1.421633292E0,-6.274978638E0,-3.093481636E1,-2.400400162E1
1.441568292E0,-5.869476318E0,-3.068315506E1,-2.448423767E1
1.461503292E0,-5.720954895E0,-3.048698044E1,-2.457496643E1
1.481438292E0,-5.502922058E0,-3.037848663E1,-2.416140366E1
1.501373292E0,-5.094978333E0,-3.053652191E1,-2.383592224E1
1.521308292E0,-4.703208923E0,-3.079308128E1,-2.374766159E1
1.541243292E0,-4.373489380E0,-3.088402939E1,-2.348402786E1
1.561178292E0,-3.657821655E0,-3.116276741E1,-2.290962219E1
1.581113292E0,-2.944747925E0,-3.117026329E1,-2.241550827E1
1.601049292E0,-2.267578125E0,-3.133747101E1,-2.188119888E1
1.620984292E0,-1.436035156E0,-3.137447357E1,-2.185248184E1
1.640919292E0,-7.287139893E-1,-3.119522095E1,-2.188712311E1
1.660854292E0,-3.489685059E-2,-3.070998764E1,-2.249725723E1
1.680789292E0,5.685119629E-1,-3.019877243E1,-2.286155319E1
1.700724292E0,1.007919312E0,-2.955734062E1,-2.327626419E1
1.720659292E0,1.476776123E0,-2.879927826E1,-2.388470459E1
1.740594292E0,1.716384888E0,-2.843651390E1,-2.409597015E1
1.760529292E0,1.672515869E0,-2.786566162E1,-2.437784576E1
1.780464292E0,1.353820801E0,-2.783930397E1,-2.430762863E1
1.800399292E0,5.709686279E-1,-2.791102791E1,-2.415221405E1
1.820334292E0,-2.223205566E-1,-2.795101357E1,-2.369606018E1
1.840269292E0,-1.370788574E0,-2.816297913E1,-2.285752869E1
1.860204292E0,-2.524612427E0,-2.862514114E1,-2.203461838E1
1.880139292E0,-3.961120605E0,-2.890436172E1,-2.122243118E1
1.900075292E0,-5.530906677E0,-2.896156693E1,-2.027018738E1
1.920010292E0,-7.185844421E0,-2.881040001E1,-1.990422440E1
1.939945292E0,-8.070068359E0,-2.896707535E1,-1.971266174E1
1.959880292E0,-9.649131775E0,-2.858880615E1,-1.925366592E1
1.979815292E0,-1.135100555E1,-2.815589142E1,-1.939356613E1
1.999750292E0,-1.270548248E1,-2.736997795E1,-1.938169098E1
2.019685583E0,-1.334688568E1,-2.645972443E1,-1.993315506E1
2.039620583E0,-1.366934204E1,-2.570420456E1,-2.100886154E1
2.059555583E0,-1.382179260E1,-2.495996094E1,-2.170819092E1
2.079490583E0,-1.393215942E1,-2.481211853E1,-2.190846252E1
2.099425583E0,-1.417650604E1,-2.464199448E1,-2.180581665E1
2.119360583E0,-1.459561920E1,-2.460201836E1,-2.156342697E1
2.139295583E0,-1.476109314E1,-2.462431145E1,-2.131000137E1
2.159230583E0,-1.447927856E1,-2.486344719E1,-2.120517731E1
2.179165583E0,-1.406502533E1,-2.500923920E1,-2.088825226E1
2.199100583E0,-1.351205444E1,-2.526032448E1,-2.116050720E1
2.219036583E0,-1.276450348E1,-2.503739357E1,-2.133576584E1
2.238971583E0,-1.219031525E1,-2.490448189E1,-2.153743362E1
2.258906583E0,-1.159614563E1,-2.458019447E1,-2.229076385E1
2.278841583E0,-1.120861053E1,-2.408419418E1,-2.293206406E1
2.298776583E0,-1.065946198E1,-2.333732986E1,-2.396911240E1
2.318711583E0,-9.928207397E0,-2.215005302E1,-2.538021088E1
2.338646583E0,-9.691841125E0,-2.168763351E1,-2.595602036E1
2.358581583E0,-9.496734619E0,-2.092466164E1,-2.639289093E1
2.378516583E0,-9.549148560E0,-2.043936729E1,-2.671428299E1
2.398451583E0,-9.507591248E0,-2.030152512E1,-2.682285690E1
2.418386583E0,-9.667922974E0,-2.032358932E1,-2.679595947E1
2.438321583E0,-9.746505737E0,-2.022669601E1,-2.677653885E1
2.458256583E0,-9.686820984E0,-2.023495293E1,-2.691050339E1
2.478191583E0,-9.508323669E0,-2.014918900E1,-2.715505600E1
2.498126583E0,-9.019020081E0,-2.037327385E1,-2.731008148E1
2.518061583E0,-8.348648071E0,-2.053600121E1,-2.731789398E1
2.537996583E0,-7.605308533E0,-2.078977203E1,-2.738127899E1
2.557932583E0,-6.834098816E0,-2.092267799E1,-2.762090683E1
2.577867583E0,-5.816535950E0,-2.102626228E1,-2.797104263E1
2.597802583E0,-5.245086670E0,-2.088944817E1,-2.815704346E1
2.617737583E0,-4.577758789E0,-2.060212517E1,-2.859108353E1
2.637672583E0,-4.342063904E0,-2.009753418E1,-2.899792099E1
2.657607583E0,-4.114128113E0,-1.971613312E1,-2.944721222E1
2.677542583E0,-3.920989990E0,-1.932244301E1,-2.996336365E1
2.697477583E0,-4.053359985E0,-1.899192238E1,-3.059471130E1
2.717412583E0,-4.262367249E0,-1.873010826E1,-3.053142548E1
2.737347583E0,-4.697715759E0,-1.880922508E1,-3.057717133E1
2.757282583E0,-5.046791077E0,-1.885145569E1,-3.082921600E1
2.777217583E0,-5.644332886E0,-1.883631516E1,-3.103945541E1
2.797152583E0,-6.257225037E0,-1.835404205E1,-3.123894501E1
2.817087583E0,-7.013168335E0,-1.776109123E1,-3.170196152E1
2.837022583E0,-7.433891296E0,-1.773236084E1,-3.177283096E1
2.856957583E0,-7.778671265E0,-1.837024689E1,-3.163315201E1
2.876892583E0,-8.318481445E0,-1.923443222E1,-3.111862564E1
2.896827583E0,-8.556571960E0,-2.041129112E1,-3.021849060E1
2.916762583E0,-9.542274475E0,-2.111532021E1,-3.013516235E1
2.936698583E0,-1.036273956E1,-2.130120087E1,-2.972571182E1
2.956633583E0,-1.116075134E1,-2.181116295E1,-2.959840012E1
2.976568583E0,-1.186714172E1,-2.189570236E1,-2.934837723E1
2.996503583E0,-1.236891174E1,-2.215143776E1,-2.934314346E1
3.016438542E0,-1.261681366E1,-2.247361565E1,-2.892776108E1
3.036373542E0,-1.289395905E1,-2.286375999E1,-2.858024216E1
3.056308542E0,-1.325052643E1,-2.307755852E1,-2.871029663E1
3.076243542E0,-1.334275055E1,-2.354868889E1,-2.851609039E1
3.096178542E0,-1.369433594E1,-2.378868866E1,-2.826013565E1
3.116113542E0,-1.366871643E1,-2.384341812E1,-2.786588669E1
3.136048542E0,-1.408358002E1,-2.438252831E1,-2.793423080E1
3.155983542E0,-1.426288605E1,-2.452433586E1,-2.771033859E1
3.175918542E0,-1.432739258E1,-2.481291008E1,-2.765942001E1
3.195853542E0,-1.430738831E1,-2.499790955E1,-2.810443497E1
3.215788542E0,-1.425340271E1,-2.499542999E1,-2.820918655E1
3.235723542E0,-1.412949371E1,-2.492065811E1,-2.874097061E1
3.255658542E0,-1.384572601E1,-2.444218445E1,-2.885334778E1
3.275593542E0,-1.339677429E1,-2.406458282E1,-2.936109161E1
3.295528542E0,-1.311038971E1,-2.359018135E1,-3.036363602E1
3.315463542E0,-1.254154205E1,-2.265596199E1,-3.086196518E1
3.335398542E0,-1.202993011E1,-2.199801826E1,-3.211098862E1
3.355334542E0,-1.138630676E1,-2.151379013E1,-3.257790756E1
3.375269542E0,-1.088362122E1,-2.142159081E1,-3.301805496E1
3.395204542E0,-1.058848572E1,-2.157524300E1,-3.301879883E1
3.415139542E0,-1.019226074E1,-2.187804222E1,-3.303072357E1
3.435074542E0,-9.950805664E0,-2.230398369E1,-3.285727310E1
3.455009542E0,-9.577583313E0,-2.273649979E1,-3.283730316E1
3.474944542E0,-9.143852234E0,-2.318374062E1,-3.285501099E1
3.494879542E0,-8.767181396E0,-2.349027824E1,-3.264801788E1
3.514814542E0,-8.083549500E0,-2.379882431E1,-3.218738937E1
3.534749542E0,-7.334342957E0,-2.398267937E1,-3.257943726E1
3.554684542E0,-6.133232117E0,-2.417023468E1,-3.238197327E1
3.574619542E0,-5.131988525E0,-2.399877357E1,-3.304409027E1
3.594554542E0,-4.244140625E0,-2.361488152E1,-3.353475189E1
3.614489542E0,-3.353088379E0,-2.341990852E1,-3.355802155E1
3.634424542E0,-2.705734253E0,-2.313174438E1,-3.369008636E1
3.654359542E0,-2.451461792E0,-2.299955559E1,-3.374700165E1
3.674294542E0,-1.882247925E0,-2.312142181E1,-3.393147278E1
3.694229542E0,-1.810714722E0,-2.318222618E1,-3.397682190E1
3.714164542E0,-1.589904785E0,-2.304256248E1,-3.396955109E1
3.734099542E0,-1.604629517E0,-2.315707588E1,-3.454826355E1
3.754034542E0,-1.764923096E0,-2.265693665E1,-3.474423218E1
3.773969542E0,-2.501678467E0,-2.208102989E1,-3.515089798E1
3.793904542E0,-3.205871582E0,-2.195609474E1,-3.522845459E1
3.813839542E0,-3.925697327E0,-2.237215805E1,-3.522537231E1
3.833775542E0,-4.588363647E0,-2.365382004E1,-3.437538147E1
3.853710542E0,-5.441810608E0,-2.497527504E1,-3.335253143E1
3.873645542E0,-6.223327637E0,-2.597530937E1,-3.246156693E1
3.893580542E0,-6.715980530E0,-2.636656380E1,-3.228323364E1
3.913515542E0,-7.882209778E0,-2.682882500E1,-3.169381332E1
3.933450542E0,-8.735816956E0,-2.720882797E1,-3.167233658E1
3.953385542E0,-9.392402649E0,-2.707418251E1,-3.147496414E1
3.973320542E0,-1.010330200E1,-2.715608978E1,-3.173199081E1
3.993255542E0,-1.054228973E1,-2.690119743E1,-3.177375412E1
4.013190333E0,-1.091440582E1,-2.655113029E1,-3.227114868E1
4.033125333E0,-1.114539337E1,-2.645862198E1,-3.220020676E1
4.053060333E0,-1.144949341E1,-2.605612183E1,-3.245121002E1
4.072995333E0,-1.156848907E1,-2.591999817E1,-3.231580353E1
4.092930333E0,-1.161888885E1,-2.572440338E1,-3.271016693E1
4.112865333E0,-1.218279266E1,-2.551769638E1,-3.256079865E1
4.132800333E0,-1.267074585E1,-2.525290680E1,-3.278149414E1
4.152735333E0,-1.304958344E1,-2.510435486E1,-3.279563141E1
4.172670333E0,-1.340975189E1,-2.467805481E1,-3.272798538E1
4.192605333E0,-1.331684113E1,-2.438963318E1,-3.337495422E1
4.212540333E0,-1.328529358E1,-2.400846100E1,-3.381418991E1
4.232475333E0,-1.259916687E1,-2.381742477E1,-3.458334732E1
4.252410333E0,-1.217417145E1,-2.319367790E1,-3.548130798E1
4.272345333E0,-1.176468658E1,-2.294604111E1,-3.590965652E1
4.292280333E0,-1.103288269E1,-2.206248665E1,-3.656279373E1
4.312215333E0,-1.001805878E1,-2.146928787E1,-3.716218185E1
4.332150333E0,-9.237327576E0,-2.098036957E1,-3.757470322E1
4.352085333E0,-8.269317627E0,-2.115649796E1,-3.798767090E1
4.372020333E0,-7.312232971E0,-2.138913536E1,-3.786711121E1
4.391955333E0,-6.676292419E0,-2.172631264E1,-3.763469315E1
4.411891333E0,-6.521156311E0,-2.225489807E1,-3.761636353E1
4.431826333E0,-6.306205750E0,-2.274764252E1,-3.749050903E1
4.451761333E0,-6.178939819E0,-2.339678001E1,-3.696909332E1
4.471696333E0,-6.011650085E0,-2.409647942E1,-3.639568329E1
4.491631333E0,-5.554450989E0,-2.489555740E1,-3.607301331E1
4.511566333E0,-4.791831970E0,-2.556100464E1,-3.543527222E1
4.531501333E0,-3.929664612E0,-2.599964905E1,-3.531772995E1
4.551436333E0,-2.890304565E0,-2.615792847E1,-3.502577972E1
4.571371333E0,-2.104812622E0,-2.592934227E1,-3.534988403E1
4.591306333E0,-1.322387695E0,-2.569394302E1,-3.586517334E1
4.611241333E0,-8.124694824E-1,-2.534869766E1,-3.632678986E1
4.631176333E0,-6.323394775E-1,-2.500363159E1,-3.619050598E1
4.651111333E0,-7.774658203E-1,-2.487630653E1,-3.623842621E1
4.671046333E0,-9.421386719E-1,-2.504529190E1,-3.638648987E1
4.690981333E0,-1.590896606E0,-2.527746201E1,-3.597449493E1
4.710916333E0,-2.460433960E0,-2.563668060E1,-3.565470123E1
4.730851333E0,-3.593170166E0,-2.565702820E1,-3.546622467E1
4.750786333E0,-4.533653259E0,-2.560457802E1,-3.559280777E1
4.770721333E0,-5.510086060E0,-2.570075607E1,-3.571701431E1
4.790656333E0,-6.075141907E0,-2.608142471E1,-3.538452530E1
4.810591333E0,-6.895874023E0,-2.698620605E1,-3.413677979E1
4.830526333E0,-7.451469421E0,-2.827176285E1,-3.327924728E1
4.850461333E0,-8.051467896E0,-2.923468399E1,-3.245568085E1
4.870396333E0,-8.559768677E0,-2.978281212E1,-3.184751129E1
4.890331333E0,-8.973915100E0,-2.996230507E1,-3.130742645E1
4.910266333E0,-9.450271606E0,-3.016556931E1,-3.098992157E1
4.930201333E0,-9.743812561E0,-3.032304382E1,-3.058041382E1
4.950136333E0,-9.889678955E0,-3.035828972E1,-3.041341782E1
4.970071333E0,-1.003587341E1,-3.032616234E1,-3.023086548E1
4.990006333E0,-9.958854675E0,-3.043226433E1,-3.033966827E1
5.009941333E0,-1.002422333E1,-3.036753845E1,-3.038987732E1
5.029876167E0,-1.008432007E1,-3.012894440E1,-3.050910187E1
5.049811167E0,-1.008286285E1,-3.005909729E1,-3.086809540E1
5.069746167E0,-1.008046722E1,-3.002510643E1,-3.081280518E1
5.089681167E0,-1.007079315E1,-2.999688148E1,-3.082672501E1
5.109616167E0,-1.011865234E1,-2.985833359E1,-3.108975983E1
5.129551167E0,-9.902992249E0,-2.974751854E1,-3.133102417E1
5.149487167E0,-9.697280884E0,-2.961015320E1,-3.149983215E1
5.169422167E0,-9.491310120E0,-2.937960052E1,-3.203039932E1
5.189357167E0,-9.142852783E0,-2.893290329E1,-3.276363373E1
5.209292167E0,-8.793586731E0,-2.867034531E1,-3.313399506E1
5.229227167E0,-8.032165527E0,-2.785661316E1,-3.364517975E1
5.249162167E0,-7.341987610E0,-2.657364082E1,-3.512808990E1
5.269097167E0,-6.363311768E0,-2.474165344E1,-3.623828888E1
5.289032167E0,-5.514785767E0,-2.356073380E1,-3.725187683E1
5.308967167E0,-4.832427979E0,-2.305941963E1,-3.772658539E1
5.328902167E0,-4.276802063E0,-2.300477028E1,-3.776703644E1
5.348837167E0,-3.718719482E0,-2.336306381E1,-3.803103638E1
5.368772167E0,-3.378448486E0,-2.354712296E1,-3.786003113E1
5.388707167E0,-3.236114502E0,-2.390933228E1,-3.756088257E1
5.408642167E0,-2.947814941E0,-2.444224930E1,-3.737650299E1
5.428577167E0,-2.611175537E0,-2.490183830E1,-3.699191284E1
5.448512167E0,-2.510131836E0,-2.505694580E1,-3.684364700E1
5.468447167E0,-1.993911743E0,-2.538107872E1,-3.637153625E1
5.488382167E0,-1.006500244E0,-2.575611496E1,-3.642507553E1
5.508317167E0,3.056335449E-2,-2.575434685E1,-3.614834595E1
5.528252167E0,1.253845215E0,-2.562197685E1,-3.627500916E1
5.548187167E0,2.247344971E0,-2.542805099E1,-3.660233307E1
5.568122167E0,2.932540894E0,-2.481027031E1,-3.692762756E1
5.588057167E0,3.700958252E0,-2.449258041E1,-3.719154358E1
5.607992167E0,4.318115234E0,-2.414455605E1,-3.736854172E1
5.627927167E0,5.126464844E0,-2.382542038E1,-3.738610077E1
5.647862167E0,6.224868774E0,-2.371289062E1,-3.745410156E1
5.667797167E0,7.097503662E0,-2.359939766E1,-3.718144989E1
5.687732167E0,7.781707764E0,-2.354475212E1,-3.735220337E1
5.707667167E0,7.994781494E0,-2.348211670E1,-3.736260986E1
5.727602167E0,7.503784180E0,-2.327961731E1,-3.739129639E1
5.747537167E0,6.777862549E0,-2.330920219E1,-3.777993774E1
5.767472167E0,5.591339111E0,-2.416112518E1,-3.721456909E1
5.787407167E0,4.101745605E0,-2.563769150E1,-3.643545532E1
5.807342167E0,2.634963989E0,-2.705325699E1,-3.511489105E1
5.827277167E0,1.025405884E0,-2.824944305E1,-3.456254578E1
5.847212167E0,2.326049805E-1,-2.857226944E1,-3.426797104E1
5.867147167E0,-1.363754272E0,-2.909074402E1,-3.370206451E1
5.887082167E0,-2.886322021E0,-2.903295708E1,-3.350128555E1
5.907017167E0,-4.225456238E0,-2.894836426E1,-3.349782181E1
5.926952167E0,-5.058395386E0,-2.900726318E1,-3.331846619E1
5.946887167E0,-6.167274475E0,-2.909927559E1,-3.318286896E1
5.966822167E0,-6.999076843E0,-2.904880714E1,-3.281410980E1
5.986757167E0,-7.754196167E0,-2.894875336E1,-3.290264511E1
6.006692167E0,-8.238311768E0,-2.877159882E1,-3.296193314E1
6.026627917E0,-8.627906799E0,-2.875363731E1,-3.320999908E1
6.046562917E0,-8.932014465E0,-2.857237816E1,-3.299824524E1
6.066497917E0,-8.996650696E0,-2.856884766E1,-3.285563660E1
6.086432917E0,-8.752937317E0,-2.889863968E1,-3.279322815E1
6.106367917E0,-8.514808655E0,-2.887275314E1,-3.247232819E1
6.126302917E0,-8.042373657E0,-2.889862633E1,-3.265092468E1
6.146237917E0,-7.563392639E0,-2.880807877E1,-3.288962555E1
6.166172917E0,-7.018623352E0,-2.847878075E1,-3.257123566E1
6.186107917E0,-6.331481934E0,-2.828182793E1,-3.274076843E1
6.206042917E0,-5.541557312E0,-2.816802788E1,-3.320414734E1
6.225977917E0,-5.265487671E0,-2.778033829E1,-3.349808502E1
6.245912917E0,-4.438301086E0,-2.679240799E1,-3.418392181E1
6.265847917E0,-3.155212402E0,-2.570022011E1,-3.529206085E1
6.285782917E0,-2.058593750E0,-2.456262398E1,-3.600573730E1
6.305717917E0,-1.170852661E0,-2.413129616E1,-3.609155273E1
6.325652917E0,-5.765228271E-1,-2.421423912E1,-3.625405502E1
6.345587917E0,-4.126434326E-1,-2.397059059E1,-3.643648529E1
6.365523917E0,-5.251007080E-1,-2.404050064E1,-3.650586319E1
6.385457917E0,-7.076263428E-1,-2.398316002E1,-3.647972870E1
6.405393917E0,-7.863464355E-1,-2.406841278E1,-3.611486816E1
6.425327917E0,-6.313323975E-1,-2.438204956E1,-3.592787170E1
6.445263917E0,-1.912841797E-1,-2.489167023E1,-3.568515396E1
6.465198917E0,2.475585938E-1,-2.531860733E1,-3.515066528E1
6.485133917E0,9.486236572E-1,-2.535371208E1,-3.478029251E1
6.505068917E0,1.746871948E0,-2.536032677E1,-3.480609131E1
6.525003917E0,2.613769531E0,-2.513770103E1,-3.478520966E1
6.544938917E0,2.992248535E0,-2.470360756E1,-3.530786896E1
6.564873917E0,3.522476196E0,-2.423038864E1,-3.534300232E1
6.584808917E0,3.810119629E0,-2.401776314E1,-3.535054779E1
6.604743917E0,4.139831543E0,-2.400763893E1,-3.529547119E1
6.624678917E0,4.222198486E0,-2.397339058E1,-3.526398468E1
6.644613917E0,4.278411865E0,-2.414719963E1,-3.496013260E1
6.664548917E0,4.628189087E0,-2.461536407E1,-3.464363480E1
6.684483917E0,4.407913208E0,-2.505780792E1,-3.418906403E1
6.704418917E0,3.736846924E0,-2.534756088E1,-3.393898773E1
6.724353917E0,2.895523071E0,-2.526171112E1,-3.413226700E1
6.744288917E0,1.587341309E0,-2.493996811E1,-3.449205399E1
